# --------------------------------------------------------
#       t_k              <E(t_k)>       <Pn(t_k)>     State fidelity -->
# --------------------------------------------------------
   0.000000e+00                nan    0.000000e+00       nan       nan       nan       nan
   5.000000e-03       4.0000000000    0.000000e+00 2.793080e-31 0.000000e+00 1.000000e+00 1.540744e-30
   1.000000e-02       4.0000000000    0.000000e+00 7.703720e-33 0.000000e+00 1.000000e+00 1.117039e-31
   1.500000e-02       4.0000000000    0.000000e+00 9.860761e-32 0.000000e+00 1.000000e+00 6.999311e-31
   2.000000e-02       4.0000000000    0.000000e+00 6.630014e-32 0.000000e+00 1.000000e+00 1.322729e-30
   2.500000e-02       4.0000001166    0.000000e+00 3.717045e-32 1.140010e-67 1.000000e+00 2.465190e-32
   3.000000e-02       4.0000003473    0.000000e+00 1.925930e-32 3.968315e-65 1.000000e+00 1.691737e-30
   3.500000e-02       4.0000008730    0.000000e+00 1.001484e-31 0.000000e+00 1.000000e+00 1.232595e-31
   4.000000e-02       4.0000019381    0.000000e+00 6.899644e-32 1.091156e-66 1.000000e+00 3.274081e-31
   4.500000e-02       4.0000039125    0.000000e+00 6.409495e-31 9.790395e-66 1.000000e+00 3.670822e-30
   5.000000e-02       4.0000073276    0.000000e+00 5.438826e-31 0.000000e+00 1.000000e+00 4.699269e-32
   5.500000e-02       4.0000129142    0.000000e+00 4.837936e-31 0.000000e+00 1.000000e+00 9.121204e-31
   6.000000e-02       4.0000216435    0.000000e+00 8.512610e-31 1.400733e-66 1.000000e+00 0.000000e+00
   6.500000e-02       4.0000347708    0.000000e+00 1.147854e-31 0.000000e+00 1.000000e+00 2.002967e-31
   7.000000e-02       4.0000538791    0.000000e+00 2.472557e-30 1.095880e-64 1.000000e+00 4.907269e-31
   7.500000e-02       4.0000809248    0.000000e+00 3.713193e-31 0.000000e+00 1.000000e+00 4.445046e-31
   8.000000e-02       4.0001182820    0.000000e+00 1.950967e-31 0.000000e+00 1.000000e+00 4.056008e-30
   8.500000e-02       4.0001687875    0.000000e+00 1.036150e-30 4.231217e-66 1.000000e+00 3.611504e-30
   9.000000e-02       4.0002357828    0.000000e+00 1.737670e-31 4.558757e-66 1.000000e+00 2.021456e-30
   9.500000e-02       4.0003231554    0.000000e+00 4.439702e-30 6.022605e-64 1.000000e+00 4.226646e-29
   1.000000e-01       4.0004353757    0.000000e+00 1.374536e-30 0.000000e+00 1.000000e+00 2.258731e-30
   1.050000e-01       4.0005775317    0.000000e+00 5.369493e-31 0.000000e+00 1.000000e+00 2.225219e-29
   1.100000e-01       4.0007553581    0.000000e+00 5.395108e-30 1.782562e-64 1.000000e+00 1.497911e-29
   1.150000e-01       4.0009752615    0.000000e+00 1.668818e-30 0.000000e+00 1.000000e+00 6.317050e-30
   1.200000e-01       4.0012443390    0.000000e+00 2.705932e-29 2.150003e-64 1.000000e+00 1.325594e-28
   1.250000e-01       4.0015703916    0.000000e+00 1.146362e-30 5.899131e-67 1.000000e+00 2.720232e-30
   1.300000e-01       4.0019619303    0.000000e+00 9.938280e-31 0.000000e+00 1.000000e+00 1.472027e-29
   1.350000e-01       4.0024281749    0.000000e+00 9.646983e-31 4.876057e-65 1.000000e+00 1.199623e-29
   1.400000e-01       4.0029790460    0.000000e+00 9.629650e-31 0.000000e+00 1.000000e+00 1.109644e-29
   1.450000e-01       4.0036251484    0.000000e+00 2.455946e-29 1.521239e-63 1.000000e+00 2.517021e-28
   1.500000e-01       4.0043777463    0.000000e+00 2.907588e-30 0.000000e+00 1.000000e+00 1.161721e-29
   1.550000e-01       4.0052487309    0.000000e+00 1.268948e-29 2.582047e-64 1.000000e+00 6.078201e-29
   1.600000e-01       4.0062505786    0.000000e+00 5.332515e-30 1.522519e-65 1.000000e+00 2.629203e-29
   1.650000e-01       4.0073963012    0.000000e+00 5.746975e-30 3.704731e-65 1.000000e+00 1.916069e-29
   1.700000e-01       4.0086993882    0.000000e+00 5.855135e-29 4.200362e-64 1.000000e+00 3.694242e-28
   1.750000e-01       4.0101737395    0.000000e+00 6.772533e-30 4.948334e-66 1.000000e+00 1.124743e-29
   1.800000e-01       4.0118335914    0.000000e+00 1.066137e-29 0.000000e+00 1.000000e+00 5.458240e-29
   1.850000e-01       4.0136934340    0.000000e+00 4.487417e-30 2.227770e-65 1.000000e+00 7.349349e-30
   1.900000e-01       4.0157679218    0.000000e+00 1.633189e-30 0.000000e+00 1.000000e+00 5.290915e-30
   1.950000e-01       4.0180717776    0.000000e+00 2.422820e-29 0.000000e+00 1.000000e+00 6.412576e-29
   2.000000e-01       4.0206196893    0.000000e+00 1.714078e-30 2.761225e-98 1.000000e+00 1.417870e-29
   2.050000e-01       4.0234262020    0.000000e+00 9.096629e-29 5.157551e-64 1.000000e+00 3.174587e-28
   2.100000e-01       4.0265056050    0.000000e+00 8.674581e-30 0.000000e+00 1.000000e+00 2.442464e-29
   2.150000e-01       4.0298718143    0.000000e+00 6.843648e-30 1.707638e-64 1.000000e+00 3.351734e-29
   2.200000e-01       4.0335382525    0.000000e+00 2.672902e-29 2.638955e-65 1.000000e+00 4.956130e-29
   2.250000e-01       4.0375177254    0.000000e+00 2.688598e-30 9.231899e-65 1.000000e+00 1.207943e-29
   2.300000e-01       4.0418222982    0.000000e+00 1.599082e-28 3.842466e-65 1.000000e+00 2.374869e-28
   2.350000e-01       4.0464631703    0.000000e+00 1.660344e-30 1.656271e-65 1.000000e+00 7.179867e-31
   2.400000e-01       4.0514505518    0.000000e+00 4.473743e-30 1.198827e-64 1.000000e+00 1.262871e-29
   2.450000e-01       4.0567935399    0.000000e+00 9.169401e-30 0.000000e+00 1.000000e+00 2.446567e-29
   2.500000e-01       4.0625000000    0.000000e+00 4.519195e-30 1.739503e-64 1.000000e+00 1.262486e-29
   2.550000e-01       4.0685764485    0.000000e+00 1.955429e-28 4.744333e-63 1.000000e+00 4.936420e-28
   2.600000e-01       4.0750279417    0.000000e+00 6.614606e-30 0.000000e+00 1.000000e+00 9.196893e-30
   2.650000e-01       4.0818579701    0.000000e+00 2.693529e-29 0.000000e+00 1.000000e+00 4.120802e-29
   2.700000e-01       4.0890683591    0.000000e+00 1.253934e-29 1.200994e-65 1.000000e+00 1.292376e-29
   2.750000e-01       4.0966591778    0.000000e+00 7.957943e-30 0.000000e+00 1.000000e+00 1.043084e-29
   2.800000e-01       4.1046286564    0.000000e+00 6.298869e-29 7.310894e-64 1.000000e+00 1.565796e-28
   2.850000e-01       4.1129731133    0.000000e+00 8.678433e-30 0.000000e+00 1.000000e+00 1.679411e-29
   2.900000e-01       4.1216868925    0.000000e+00 1.036921e-28 5.529190e-64 1.000000e+00 1.489591e-28
   2.950000e-01       4.1307623120    0.000000e+00 1.010728e-29 0.000000e+00 1.000000e+00 2.019607e-29
   3.000000e-01       4.1401896243    0.000000e+00 1.066349e-29 0.000000e+00 1.000000e+00 4.736247e-30
   3.050000e-01       4.1499569894    0.000000e+00 8.229113e-30 1.601164e-64 1.000000e+00 1.004950e-29
   3.100000e-01       4.1600504605    0.000000e+00 3.232144e-30 1.297791e-65 1.000000e+00 5.080025e-30
   3.150000e-01       4.1704539837    0.000000e+00 7.495816e-29 0.000000e+00 1.000000e+00 9.804139e-29
   3.200000e-01       4.1811494105    0.000000e+00 5.109107e-30 0.000000e+00 1.000000e+00 1.419685e-29
   3.250000e-01       4.1921165257    0.000000e+00 2.861412e-29 7.404352e-64 1.000000e+00 1.161721e-29
   3.300000e-01       4.2033330877    0.000000e+00 2.792598e-30 0.000000e+00 1.000000e+00 2.298790e-30
   3.350000e-01       4.2147748849    0.000000e+00 2.963043e-30 1.987431e-64 1.000000e+00 7.263067e-30
   3.400000e-01       4.2264158043    0.000000e+00 3.726337e-30 4.880820e-99 1.000000e+00 5.947272e-30
   3.450000e-01       4.2382279155    0.000000e+00 3.022988e-30 1.164934e-64 1.000000e+00 4.566428e-30
   3.500000e-01       4.2501815672    0.000000e+00 2.707954e-29 1.569428e-63 1.000000e+00 3.663581e-29
   3.550000e-01       4.2622454978    0.000000e+00 3.405044e-30 3.062838e-97 1.000000e+00 2.871947e-30
   3.600000e-01       4.2743869575    0.000000e+00 1.670860e-29 0.000000e+00 1.000000e+00 1.469870e-29
   3.650000e-01       4.2865718438    0.000000e+00 4.854547e-30 1.154168e-64 1.000000e+00 1.967723e-30
   3.700000e-01       4.2987648473    0.000000e+00 1.132293e-29 1.697254e-64 1.000000e+00 1.686498e-29
   3.750000e-01       4.3109296084    0.000000e+00 2.610271e-29 0.000000e+00 1.000000e+00 1.377907e-29
   3.800000e-01       4.3230288834    0.000000e+00 7.006966e-30 0.000000e+00 1.000000e+00 2.490613e-30
   3.850000e-01       4.3350247198    0.000000e+00 1.750670e-29 7.916835e-65 1.000000e+00 2.988138e-29
   3.900000e-01       4.3468786384    0.000000e+00 6.146624e-30 0.000000e+00 1.000000e+00 5.266161e-30
   3.950000e-01       4.3585518222    0.000000e+00 3.299841e-29 1.266070e-63 1.000000e+00 1.475537e-29
   4.000000e-01       4.3700053107    0.000000e+00 2.423590e-30 6.107576e-65 1.000000e+00 2.823413e-30
   4.050000e-01       4.3812001983    0.000000e+00 2.252337e-29 3.722885e-65 1.000000e+00 1.805136e-29
   4.100000e-01       4.3920978343    0.000000e+00 7.177748e-30 0.000000e+00 1.000000e+00 6.754622e-30
   4.150000e-01       4.4026600264    0.000000e+00 9.152982e-30 3.174287e-67 1.000000e+00 5.879479e-30
   4.200000e-01       4.4128492420    0.000000e+00 2.167215e-29 0.000000e+00 1.000000e+00 1.435049e-29
   4.250000e-01       4.4226288100    0.000000e+00 3.798126e-30 2.170018e-64 1.000000e+00 5.700753e-31
   4.300000e-01       4.4319631189    0.000000e+00 1.568188e-29 0.000000e+00 1.000000e+00 9.890228e-30
   4.350000e-01       4.4408178116    0.000000e+00 4.021342e-30 1.704716e-64 1.000000e+00 1.386670e-31
   4.400000e-01       4.4491599741    0.000000e+00 1.119524e-29 0.000000e+00 1.000000e+00 2.019607e-29
   4.450000e-01       4.4569583189    0.000000e+00 3.892882e-30 3.797535e-65 1.000000e+00 8.905500e-31
   4.500000e-01       4.4641833588    0.000000e+00 8.857066e-30 1.378925e-64 1.000000e+00 1.374888e-29
   4.550000e-01       4.4708075735    0.000000e+00 3.643282e-30 3.733488e-65 1.000000e+00 2.855432e-30
   4.600000e-01       4.4768055644    0.000000e+00 6.417199e-30 0.000000e+00 1.000000e+00 2.687057e-30
   4.650000e-01       4.4821541993    0.000000e+00 5.163996e-30 1.583793e-64 1.000000e+00 1.509929e-30
   4.700000e-01       4.4868327438    0.000000e+00 1.809751e-30 2.515596e-64 1.000000e+00 3.097196e-30
   4.750000e-01       4.4908229802    0.000000e+00 6.603051e-30 0.000000e+00 1.000000e+00 6.910429e-30
   4.800000e-01       4.4941093121    0.000000e+00 3.063769e-30 0.000000e+00 1.000000e+00 2.492924e-30
   4.850000e-01       4.4966788540    0.000000e+00 2.679546e-30 2.586383e-64 1.000000e+00 9.358479e-30
   4.900000e-01       4.4985215060    0.000000e+00 1.376417e-30 4.385600e-97 1.000000e+00 1.780763e-30
   4.950000e-01       4.4996300116    0.000000e+00 2.683813e-31 4.684151e-98 1.000000e+00 6.030664e-30
   5.000000e-01       4.5000000000    0.000000e+00 2.485413e-30 3.712772e-65 1.000000e+00 2.619265e-30
   5.050000e-01       4.4996300116    0.000000e+00 2.218671e-30 2.740685e-64 1.000000e+00 1.577722e-30
   5.100000e-01       4.4985215060    0.000000e+00 3.081488e-33 0.000000e+00 1.000000e+00 5.461937e-31
   5.150000e-01       4.4966788540    0.000000e+00 6.941052e-31 1.798115e-65 1.000000e+00 4.563684e-30
   5.200000e-01       4.4941093121    0.000000e+00 1.562516e-30 0.000000e+00 1.000000e+00 4.931584e-32
   5.250000e-01       4.4908229802    0.000000e+00 8.658981e-31 0.000000e+00 1.000000e+00 1.633189e-31
   5.300000e-01       4.4868327438    0.000000e+00 4.285194e-31 0.000000e+00 1.000000e+00 5.577493e-31
   5.350000e-01       4.4821541993    0.000000e+00 6.326680e-31 6.042012e-65 1.000000e+00 4.021342e-30
   5.400000e-01       4.4768055644    0.000000e+00 4.814825e-31 0.000000e+00 1.000000e+00 9.645057e-31
   5.450000e-01       4.4708075735    0.000000e+00 4.770528e-31 5.055861e-65 1.000000e+00 3.797934e-31
   5.500000e-01       4.4641833588    0.000000e+00 1.486818e-31 8.691423e-68 1.000000e+00 4.930381e-32
   5.550000e-01       4.4569583189    0.000000e+00 3.830675e-31 0.000000e+00 1.000000e+00 2.010671e-31
   5.600000e-01       4.4491599741    0.000000e+00 8.905500e-31 9.027608e-65 1.000000e+00 3.358822e-31
   5.650000e-01       4.4408178116    0.000000e+00 7.615608e-31 2.192801e-63 1.000000e+00 6.252339e-30
   5.700000e-01       4.4319631189    0.000000e+00 1.094699e-30 3.704144e-64 1.000000e+00 1.041543e-30
   5.750000e-01       4.4226288100    0.000000e+00 9.398538e-31 0.000000e+00 1.000000e+00 9.621946e-31
   5.800000e-01       4.4128492420    0.000000e+00 1.085454e-30 0.000000e+00 1.000000e+00 2.566879e-30
   5.850000e-01       4.4026600264    0.000000e+00 2.343857e-31 0.000000e+00 1.000000e+00 4.693876e-30
   5.900000e-01       4.3920978343    0.000000e+00 3.167770e-30 0.000000e+00 1.000000e+00 1.464477e-30
   5.950000e-01       4.3812001983    0.000000e+00 6.116754e-31 0.000000e+00 1.000000e+00 6.964163e-31
   6.000000e-01       4.3700053107    0.000000e+00 1.040484e-31 1.004825e-64 1.000000e+00 4.187935e-30
   6.050000e-01       4.3585518222    0.000000e+00 2.002967e-30 0.000000e+00 1.000000e+00 4.498972e-31
   6.100000e-01       4.3468786384    0.000000e+00 1.631949e-30 4.054149e-64 1.000000e+00 8.214091e-31
   6.150000e-01       4.3350247198    0.000000e+00 3.405044e-31 0.000000e+00 1.000000e+00 1.302410e-31
   6.200000e-01       4.3230288834    0.000000e+00 1.742967e-31 0.000000e+00 1.000000e+00 1.679411e-30
   6.250000e-01       4.3109296084    0.000000e+00 1.388210e-30 6.255973e-65 1.000000e+00 9.013352e-32
   6.300000e-01       4.2987648473    0.000000e+00 1.905322e-30 9.789688e-65 1.000000e+00 2.213279e-30
   6.350000e-01       4.2865718438    0.000000e+00 1.260329e-30 5.827011e-65 1.000000e+00 5.207715e-31
   6.400000e-01       4.2743869575    0.000000e+00 2.103597e-31 1.499690e-63 1.000000e+00 4.075268e-31
   6.450000e-01       4.2622454978    0.000000e+00 1.425188e-31 8.788711e-64 1.000000e+00 1.639544e-30
   6.500000e-01       4.2501815672    0.000000e+00 1.757411e-30 0.000000e+00 1.000000e+00 3.081488e-32
   6.550000e-01       4.2382279155    0.000000e+00 6.434532e-31 0.000000e+00 1.000000e+00 7.703720e-32
   6.600000e-01       4.2264158043    0.000000e+00 3.406970e-31 3.326251e-64 1.000000e+00 3.728630e-31
   6.650000e-01       4.2147748849    0.000000e+00 4.333342e-32 2.008563e-64 1.000000e+00 2.002967e-31
   6.700000e-01       4.2033330877    0.000000e+00 4.167712e-31 0.000000e+00 1.000000e+00 7.210682e-31
   6.750000e-01       4.1921165257    0.000000e+00 4.718528e-32 1.941009e-64 1.000000e+00 2.095412e-30
   6.800000e-01       4.1811494105    0.000000e+00 2.314631e-30 0.000000e+00 1.000000e+00 1.650341e-30
   6.850000e-01       4.1704539837    0.000000e+00 3.900008e-33 0.000000e+00 1.000000e+00 5.585197e-31
   6.900000e-01       4.1600504605    0.000000e+00 3.405044e-31 6.896996e-65 1.000000e+00 1.962908e-30
   6.950000e-01       4.1499569894    0.000000e+00 1.171736e-30 9.195837e-64 1.000000e+00 1.244921e-30
   7.000000e-01       4.1401896243    0.000000e+00 1.589711e-30 0.000000e+00 1.000000e+00 4.255535e-30
   7.050000e-01       4.1307623120    0.000000e+00 5.766746e-31 1.388335e-97 1.000000e+00 1.757779e-30
   7.100000e-01       4.1216868925    0.000000e+00 2.577857e-30 1.558478e-65 1.000000e+00 1.282669e-30
   7.150000e-01       4.1129731133    0.000000e+00 3.243266e-31 1.775356e-64 1.000000e+00 9.984021e-31
   7.200000e-01       4.1046286564    0.000000e+00 1.708685e-30 0.000000e+00 1.000000e+00 2.418968e-30
   7.250000e-01       4.0966591778    0.000000e+00 7.472608e-31 7.043409e-64 1.000000e+00 1.938256e-30
   7.300000e-01       4.0890683591    0.000000e+00 1.925930e-31 9.115906e-64 1.000000e+00 4.255535e-30
   7.350000e-01       4.0818579701    0.000000e+00 1.090269e-30 0.000000e+00 1.000000e+00 1.526408e-30
   7.400000e-01       4.0750279417    0.000000e+00 2.090019e-30 0.000000e+00 1.000000e+00 2.465190e-30
   7.450000e-01       4.0685764485    0.000000e+00 2.041486e-31 0.000000e+00 1.000000e+00 1.568477e-30
   7.500000e-01       4.0625000000    0.000000e+00 1.754330e-30 1.647727e-63 1.000000e+00 3.565282e-30
   7.550000e-01       4.0567935399    0.000000e+00 2.056123e-30 0.000000e+00 1.000000e+00 1.198699e-30
   7.600000e-01       4.0514505518    0.000000e+00 4.452750e-31 1.499510e-97 1.000000e+00 5.377196e-30
   7.650000e-01       4.0464631703    0.000000e+00 1.579263e-30 0.000000e+00 1.000000e+00 8.820759e-31
   7.700000e-01       4.0418222982    0.000000e+00 5.828345e-31 7.370236e-64 1.000000e+00 7.366682e-31
   7.750000e-01       4.0375177254    0.000000e+00 5.072057e-31 7.798670e-64 1.000000e+00 1.653411e-30
   7.800000e-01       4.0335382525    0.000000e+00 1.324570e-30 0.000000e+00 1.000000e+00 2.893710e-32
   7.850000e-01       4.0298718143    0.000000e+00 1.072406e-30 7.985677e-64 1.000000e+00 1.434818e-31
   7.900000e-01       4.0265056050    0.000000e+00 9.807317e-31 6.894592e-64 1.000000e+00 3.831060e-30
   7.950000e-01       4.0234262020    0.000000e+00 5.788575e-30 0.000000e+00 1.000000e+00 2.293397e-30
   8.000000e-01       4.0206196893    0.000000e+00 5.024751e-31 1.735111e-64 1.000000e+00 4.218557e-30
   8.050000e-01       4.0180717776    0.000000e+00 1.835219e-30 1.507977e-97 1.000000e+00 3.562200e-30
   8.100000e-01       4.0157679218    0.000000e+00 8.714833e-31 0.000000e+00 1.000000e+00 8.165943e-31
   8.150000e-01       4.0136934340    0.000000e+00 2.873487e-31 3.530960e-98 1.000000e+00 4.005934e-31
   8.200000e-01       4.0118335914    0.000000e+00 1.239529e-30 2.994512e-63 1.000000e+00 1.097010e-30
   8.250000e-01       4.0101737395    0.000000e+00 2.610213e-30 0.000000e+00 1.000000e+00 1.509929e-31
   8.300000e-01       4.0086993882    0.000000e+00 5.902975e-31 0.000000e+00 1.000000e+00 1.741041e-30
   8.350000e-01       4.0073963012    0.000000e+00 5.579419e-31 0.000000e+00 1.000000e+00 7.210682e-31
   8.400000e-01       4.0062505786    0.000000e+00 1.350462e-30 3.003592e-63 1.000000e+00 1.540744e-31
   8.450000e-01       4.0052487309    0.000000e+00 5.787419e-31 0.000000e+00 1.000000e+00 2.873487e-31
   8.500000e-01       4.0043777463    0.000000e+00 1.732567e-30 1.807554e-64 1.000000e+00 1.184062e-30
   8.550000e-01       4.0036251484    0.000000e+00 6.195717e-31 2.977486e-63 1.000000e+00 1.494522e-30
   8.600000e-01       4.0029790460    0.000000e+00 7.557349e-31 1.772937e-64 1.000000e+00 8.820759e-31
   8.650000e-01       4.0024281749    0.000000e+00 2.120834e-30 2.978001e-63 1.000000e+00 2.619265e-31
   8.700000e-01       4.0019619303    0.000000e+00 9.714391e-31 0.000000e+00 1.000000e+00 7.056607e-31
   8.750000e-01       4.0015703916    0.000000e+00 2.010863e-30 1.451443e-63 1.000000e+00 1.836567e-30
   8.800000e-01       4.0012443390    0.000000e+00 2.439190e-30 2.946257e-63 1.000000e+00 1.540744e-32
   8.850000e-01       4.0009752615    0.000000e+00 7.189496e-31 2.866689e-63 1.000000e+00 2.357338e-30
   8.900000e-01       4.0007553581    0.000000e+00 5.658382e-30 0.000000e+00 1.000000e+00 5.081374e-30
   8.950000e-01       4.0005775317    0.000000e+00 5.893346e-30 7.249156e-64 1.000000e+00 9.028760e-31
   9.000000e-01       4.0004353757    0.000000e+00 1.602374e-31 0.000000e+00 1.000000e+00 5.438826e-30
   9.050000e-01       4.0003231554    0.000000e+00 3.763460e-30 2.933492e-63 1.000000e+00 2.811087e-30
   9.100000e-01       4.0002357828    0.000000e+00 2.998480e-30 2.887543e-63 1.000000e+00 3.605341e-31
   9.150000e-01       4.0001687875    0.000000e+00 1.117039e-30 1.137871e-65 1.000000e+00 8.512610e-31
   9.200000e-01       4.0001182820    0.000000e+00 3.047014e-30 0.000000e+00 1.000000e+00 9.121204e-31
   9.250000e-01       4.0000809248    0.000000e+00 2.505469e-30 2.894259e-63 1.000000e+00 5.185085e-31
   9.300000e-01       4.0000538791    0.000000e+00 3.705489e-31 7.289617e-64 1.000000e+00 2.265712e-30
   9.350000e-01       4.0000347708    0.000000e+00 3.311492e-30 0.000000e+00 1.000000e+00 9.930095e-31
   9.400000e-01       4.0000216435    0.000000e+00 2.148567e-30 0.000000e+00 1.000000e+00 3.728600e-31
   9.450000e-01       4.0000129142    0.000000e+00 9.506390e-31 0.000000e+00 1.000000e+00 5.700753e-31
   9.500000e-01       4.0000073276    0.000000e+00 3.358822e-30 1.235039e-62 1.000000e+00 1.925930e-30
   9.550000e-01       4.0000039125    0.000000e+00 3.710882e-30 7.264025e-64 1.000000e+00 4.591417e-31
